time,voltage,time_err,voltage_err
0.0013560100000000002,-0.4058333333333333,1.4142135623729962e-07,0.015012072436561828
0.0013564900000000001,-0.44416666666666665,1.414213562373156e-07,0.014421200175184928
0.0013569699999999999,-0.4666666666666666,1.414213562373156e-07,0.018336626845141688
0.0013574499999999998,-0.47,1.4142135623729962e-07,0.014446302370292291
0.00135793,-0.46166666666666667,1.4142135623730896e-07,0.014345630047135443
0.00135841,-0.43500000000000005,1.4142135623730827e-07,0.01888178326139867
0.00135889,-0.3941666666666667,1.4142135623730896e-07,0.018157922373651013
0.0013593700000000002,-0.34416666666666673,1.4142135623729962e-07,0.018630658852422856
0.0013598500000000001,-0.2833333333333334,1.414213562373156e-07,0.021802805297497372
0.0013603299999999999,-0.2041666666666667,1.414213562373203e-07,0.03174855925066134
0.0013608099999999998,-0.13,1.4142135623729962e-07,0.02889260474058461
0.00136129,-0.04750000000000001,1.414213562373056e-07,0.024891067019943206
0.00136177,0.035,1.4142135623730827e-07,0.02781929264877633
0.00136225,0.11666666666666665,1.414213562372976e-07,0.026154501926331782
0.0013627300000000001,0.18583333333333338,1.4142135623731227e-07,0.023941353466274653
0.0013632100000000001,0.24333333333333332,1.414213562373156e-07,0.02098999071331209
0.0013636899999999999,0.30250000000000005,1.4142135623731028e-07,0.01893926218663
0.0013641699999999998,0.3425,1.4142135623731362e-07,0.01983628646873111
0.00136465,0.3625,1.414213562373056e-07,0.014817733206914754
0.00136513,0.3691666666666667,1.4142135623731428e-07,0.014421200175184926
0.00136561,0.36500000000000005,1.414213562372976e-07,0.013513278493843527
0.0013660900000000001,0.34833333333333333,1.4142135623731028e-07,0.01761093204621015
0.0013665700000000001,0.31,1.4142135623732294e-07,0.018650096164806278
0.00136705,0.2591666666666667,1.4142135623731026e-07,0.02165272684236665
0.0013675299999999998,0.19666666666666668,1.4142135623731293e-07,0.025480882290824243
0.00136801,0.12916666666666668,1.414213562373056e-07,0.02888006182497698
0.00136849,0.04833333333333333,1.414213562373056e-07,0.031714304366472795
0.00136897,-0.024166666666666666,1.4142135623731293e-07,0.029476101840476547
0.0013694500000000001,-0.1125,1.4142135623731028e-07,0.02937760164242258
0.00136993,-0.1958333333333333,1.4142135623732294e-07,0.025007245326916352
0.0013704099999999999,-0.26583333333333337,1.4142135623731028e-07,0.030915968389317445
0.0013708900000000003,-0.33416666666666667,1.414213562372976e-07,0.021652726842366642
0.00137137,-0.38833333333333336,1.4142135623731425e-07,0.019486152645597755
0.00137185,-0.43083333333333335,1.414213562373056e-07,0.01767254482466264
0.00137233,-0.45583333333333337,1.4142135623731362e-07,0.017672544824662635
0.0013728100000000001,-0.47,1.4142135623731028e-07,0.013187609467915726
0.00137329,-0.47,1.414213562373156e-07,0.013187609467915726
0.00137377,-0.45,1.4142135623731227e-07,0.014446302370292307
0.0013742499999999998,-0.41916666666666674,1.414213562372976e-07,0.019981875845846913
0.00137473,-0.37333333333333335,1.4142135623730827e-07,0.0225863881029312
0.00137521,-0.31749999999999995,1.414213562373056e-07,0.023078316568852546
0.00137569,-0.24333333333333332,1.4142135623729962e-07,0.029878982967771944
0.0013761700000000001,-0.1691666666666667,1.414213562373203e-07,0.027013147630876644
0.00137665,-0.09083333333333334,1.414213562373156e-07,0.02764946208560283
0.0013771299999999998,-0.008333333333333333,1.4142135623729962e-07,0.02697287956233183
0.0013776100000000002,0.07416666666666667,1.4142135623730893e-07,0.029769647026089693
0.00137809,0.1491666666666667,1.4142135623730827e-07,0.022050666295102533
0.00137857,0.2175,1.4142135623730896e-07,0.02453923212008636
0.00137905,0.27666666666666667,1.4142135623729962e-07,0.020144406207413396
0.0013795300000000001,0.32,1.414213562373156e-07,0.01668115312456599
0.00138001,0.3516666666666666,1.414213562373156e-07,0.020359095108162056
0.00138049,0.3691666666666667,1.4142135623729962e-07,0.013160106602801576
0.0013809700000000002,0.37250000000000005,1.414213562373056e-07,0.014218787326754644
0.00138145,0.36416666666666675,1.4142135623730827e-07,0.010179547554081035
0.00138193,0.3316666666666666,1.414213562372976e-07,0.018572224859501465
0.00138241,0.28500000000000003,1.4142135623731227e-07,0.019781414201873605
0.0013828900000000001,0.2333333333333333,1.414213562373156e-07,0.01926173649372307
0.00138337,0.17333333333333334,1.4142135623732026e-07,0.020989990713312083
0.0013838499999999998,0.09583333333333334,1.4142135623731362e-07,0.025007245326916356
0.0013843300000000002,0.018333333333333337,1.414213562373056e-07,0.030024144873123677
0.00138481,-0.06416666666666666,1.4142135623731428e-07,0.029476101840476547
0.00138529,-0.14916666666666667,1.414213562372976e-07,0.031748559250661335
0.00138577,-0.22666666666666666,1.4142135623731028e-07,0.028691260094270896
0.0013862500000000001,-0.29583333333333334,1.414213562373156e-07,0.02500724532691635
0.00138673,-0.3591666666666667,1.4142135623731026e-07,0.02165272684236664
0.00138721,-0.4033333333333333,1.4142135623731293e-07,0.016329931618554512
0.0013876900000000002,-0.44250000000000006,1.414213562373056e-07,0.02151844507070317
0.00138817,-0.46833333333333327,1.414213562373056e-07,0.014345630047135436
0.00138865,-0.4749999999999999,1.4142135623731293e-07,0.014744195615489704
0.00138913,-0.4608333333333334,1.4142135623731028e-07,0.013805061033726992
0.00138961,-0.4366666666666667,1.4142135623732294e-07,0.012740441145412134
0.00139009,-0.3966666666666667,1.4142135623731026e-07,0.01833662684514169
0.0013905699999999998,-0.3458333333333334,1.4142135623731293e-07,0.022441550490235666
0.0013910500000000002,-0.28250000000000003,1.4142135623731425e-07,0.024539232120086362
0.00139153,-0.20750000000000002,1.414213562373056e-07,0.028168746171414252
0.00139201,-0.13416666666666668,1.4142135623731362e-07,0.029769647026089696
0.00139249,-0.04583333333333334,1.4142135623731028e-07,0.02796218979212849
0.00139297,0.0325,1.414213562373156e-07,0.026905632188786437
0.00139345,0.11,1.4142135623731026e-07,0.02702655698768705
0.00139393,0.18250000000000002,1.4142135623729763e-07,0.020694464708351783
0.0013944100000000002,0.24166666666666667,1.4142135623730827e-07,0.02119611668015726
0.00139489,0.29583333333333334,1.414213562373056e-07,0.018630658852422856
0.00139537,0.33916666666666667,1.4142135623729962e-07,0.01909169331471643
0.00139585,0.36000000000000004,1.4142135623732026e-07,0.013187609467915735
0.00139633,0.3766666666666667,1.414213562373156e-07,0.009630868246861546
0.00139681,0.37000000000000005,1.4142135623731227e-07,0.011795356492391775
0.0013972899999999998,0.3466666666666667,1.4142135623730893e-07,0.018336626845141684
0.0013977700000000002,0.31166666666666665,1.4142135623730827e-07,0.019486152645597752
0.00139825,0.2608333333333333,1.4142135623730896e-07,0.022441550490235683
0.00139873,0.1991666666666667,1.4142135623729962e-07,0.021652726842366642
0.00139921,0.135,1.414213562373156e-07,0.02587595828933306
0.00139969,0.06083333333333334,1.414213562373156e-07,0.025352586124267596
0.00140017,-0.020833333333333332,1.4142135623729962e-07,0.030915968389317445
0.00140065,-0.11416666666666668,1.4142135623730896e-07,0.0253525861242676
0.0014011300000000002,-0.18916666666666668,1.4142135623730827e-07,0.02500724532691635
0.00140161,-0.26166666666666666,1.414213562372976e-07,0.029439202887759492
0.00140209,-0.3308333333333333,1.4142135623731227e-07,0.019541854005467714
0.00140257,-0.38083333333333336,1.414213562373156e-07,0.018157922373651023
0.00140305,-0.425,1.4142135623732026e-07,0.021467872861962622
0.00140353,-0.45583333333333337,1.4142135623729962e-07,0.016659418713870475
0.0014040099999999998,-0.47333333333333333,1.414213562373056e-07,0.012740441145412108
0.0014044900000000002,-0.4716666666666667,1.4142135623731428e-07,0.013077250963165876
0.00140497,-0.45249999999999996,1.414213562372976e-07,0.016484511834894678
0.0014053,-0.43555555555555553,5.477225575048825e-08,0.01666666666666668
