time,voltage,time_err,voltage_err
0.00135901,-0.9733333333333333,1.414213562373156e-07,0.03667325369028339
0.0013594899999999999,-0.8716666666666667,1.414213562373156e-07,0.03726131770484573
0.00135997,-0.7483333333333334,1.4142135623729962e-07,0.049314136492196785
0.00136045,-0.6133333333333334,1.414213562373056e-07,0.0561571294530427
0.00136093,-0.4383333333333333,1.4142135623730827e-07,0.047882706932549306
0.0013614100000000002,-0.26666666666666666,1.414213562372976e-07,0.06315382646444671
0.0013618900000000001,-0.09333333333333334,1.4142135623731227e-07,0.052309003852663565
0.00136237,0.08666666666666667,1.414213562373156e-07,0.06531972647421809
0.0013628499999999999,0.27166666666666667,1.414213562373203e-07,0.05272295652680658
0.00136333,0.4366666666666667,1.4142135623731362e-07,0.06004828974624736
0.00136381,0.5783333333333335,1.414213562373056e-07,0.04860369163530389
0.0013642899999999998,0.7183333333333334,1.4142135623731425e-07,0.04330545368473328
0.0013647700000000002,0.83,1.414213562372976e-07,0.03956282840374721
0.00136525,0.9083333333333333,1.4142135623731028e-07,0.03818338662943288
0.00136573,0.9700000000000001,1.414213562373156e-07,0.03387958215439679
0.0013662099999999999,1.01,1.4142135623731028e-07,0.021264381322847817
0.00136669,0.9833333333333334,1.4142135623731293e-07,0.028691260094270917
0.00136717,0.9366666666666665,1.414213562373056e-07,0.03714444971900291
0.00136765,0.8616666666666667,1.414213562373056e-07,0.035345089649325284
0.0013681300000000002,0.7650000000000001,1.4142135623731293e-07,0.04303689014140634
0.0013686100000000001,0.6383333333333333,1.4142135623731028e-07,0.05070517224853518
0.0013690899999999999,0.49499999999999994,1.4142135623732294e-07,0.05633749234282851
0.0013695699999999999,0.33166666666666667,1.4142135623731028e-07,0.06183193677863489
0.00137005,0.155,1.4142135623731293e-07,0.06276249226076518
0.00137053,-0.02666666666666667,1.4142135623731425e-07,0.05975796593554388
0.0013710099999999998,-0.2133333333333333,1.414213562373056e-07,0.06531972647421809
0.0013714900000000002,-0.38999999999999996,1.4142135623731362e-07,0.05927093282765903
0.00137197,-0.5566666666666668,1.4142135623731028e-07,0.04071819021632412
0.0013724499999999999,-0.7000000000000001,1.414213562373156e-07,0.05778520948116922
0.0013729299999999999,-0.8233333333333333,1.4142135623731028e-07,0.03714444971900291
0.00137341,-0.945,1.4142135623729763e-07,0.03878592304028558
0.00137389,-1.03,1.4142135623730827e-07,0.029488391230979454
0.00137437,-1.0783333333333334,1.414213562373056e-07,0.02200131748360751
0.0013748500000000002,-1.0966666666666667,1.4142135623729962e-07,0.0286912600942709
0.0013753300000000001,-1.0733333333333335,1.414213562373203e-07,0.02807856472652138
0.0013758099999999999,-1.015,1.414213562373156e-07,0.03296902366978938
0.0013762899999999998,-0.9183333333333333,1.4142135623731227e-07,0.03996375169169383
0.00137677,-0.8116666666666666,1.4142135623730896e-07,0.05205905231116133
0.00137725,-0.6833333333333332,1.4142135623730827e-07,0.05130189136836004
0.0013777299999999998,-0.535,1.4142135623730893e-07,0.05633749234282851
0.0013782100000000002,-0.3666666666666667,1.4142135623729962e-07,0.05615712945304271
0.0013786900000000001,-0.18333333333333335,1.414213562373156e-07,0.058878405775518984
0.0013791699999999999,-0.01,1.414213562373156e-07,0.059270932827659044
0.0013796499999999998,0.18666666666666668,1.4142135623729962e-07,0.06091095901015048
0.00138013,0.35333333333333333,1.4142135623730896e-07,0.04957792870313112
0.00138061,0.52,1.4142135623730827e-07,0.04413418274938965
0.00138109,0.6566666666666666,1.414213562372976e-07,0.040718190216324134
0.0013815700000000002,0.7800000000000001,1.4142135623731227e-07,0.042528762645695585
0.0013820500000000001,0.8733333333333334,1.414213562373156e-07,0.03852347298744616
0.0013825299999999999,0.94,1.414213562373203e-07,0.028892604740584582
0.0013830099999999998,0.9816666666666668,1.4142135623729962e-07,0.02632021320560316
0.00138349,1.0016666666666667,1.414213562373056e-07,0.030024144873123704
0.00138397,0.9716666666666667,1.4142135623731428e-07,0.027610122067454
0.00138445,0.9133333333333334,1.414213562372976e-07,0.030455479505075236
0.0013849300000000001,0.8266666666666668,1.4142135623731028e-07,0.03472458929129723
0.0013854100000000001,0.7050000000000001,1.414213562373156e-07,0.05508886102194937
0.0013858899999999999,0.5700000000000001,1.4142135623731028e-07,0.05437390678561211
0.0013863699999999998,0.41,1.4142135623731362e-07,0.053079104215762965
0.00138685,0.2416666666666667,1.414213562373056e-07,0.05835920751217648
0.00138733,0.06166666666666667,1.414213562373056e-07,0.06773777230690016
0.00138781,-0.115,1.4142135623731293e-07,0.05445380970422867
0.0013882900000000001,-0.295,1.4142135623731028e-07,0.04836455763038269
0.0013887700000000001,-0.4766666666666666,1.4142135623732294e-07,0.06342860873294559
0.00138925,-0.63,1.4142135623731026e-07,0.04898979485566356
0.0013897299999999998,-0.7733333333333334,1.4142135623731293e-07,0.050961764581648486
0.00139021,-0.8866666666666667,1.414213562373056e-07,0.045172776205862394
0.00139069,-0.9900000000000001,1.414213562373056e-07,0.031759969335216846
0.00139117,-1.0533333333333335,1.4142135623731362e-07,0.03265986323710907
0.0013916500000000001,-1.0850000000000002,1.4142135623731028e-07,0.02718695339280608
0.00139213,-1.0916666666666668,1.414213562373156e-07,0.024963741822833823
0.0013926099999999999,-1.0516666666666667,1.4142135623731028e-07,0.030024144873123704
0.0013930900000000003,-0.9716666666666667,1.414213562372976e-07,0.03996375169169384
0.00139357,-0.8766666666666666,1.4142135623731425e-07,0.04555614468807233
0.00139405,-0.75,1.414213562373056e-07,0.05437390678561211
0.00139453,-0.6149999999999999,1.4142135623729962e-07,0.048364557630382686
0.0013950100000000001,-0.4666666666666666,1.414213562373203e-07,0.058582284506248264
0.00139549,-0.2833333333333334,1.414213562373156e-07,0.05887840577551898
0.00139597,-0.09999999999999999,1.4142135623731227e-07,0.0565685424949238
0.0013964499999999998,0.09166666666666667,1.414213562372976e-07,0.057154760664940824
0.00139693,0.25666666666666665,1.4142135623730827e-07,0.052640426411206274
0.00139741,0.4183333333333334,1.4142135623730896e-07,0.044101332590205065
0.00139789,0.5783333333333335,1.4142135623729962e-07,0.05001449065383269
0.0013983700000000001,0.7183333333333334,1.414213562373156e-07,0.036315844747302026
0.00139885,0.8316666666666667,1.414213562373156e-07,0.04565148377670207
0.0013993299999999998,0.9116666666666667,1.4142135623729962e-07,0.026320213205603134
0.0013998100000000002,0.9716666666666667,1.4142135623730893e-07,0.03818338662943288
0.00140029,1.0,1.4142135623730827e-07,0.03538606947717533
0.00140077,0.9833333333333334,1.4142135623730896e-07,0.02334368300487061
0.00140125,0.9383333333333334,1.4142135623731227e-07,0.031161105448196502
0.0014017300000000001,0.86,1.414213562373156e-07,0.02637521893583149
0.00140221,0.7716666666666668,1.4142135623732026e-07,0.04640714587653282
0.00140269,0.645,1.4142135623729962e-07,0.05316095330711949
0.0014031700000000002,0.49833333333333335,1.414213562373056e-07,0.05001449065383272
0.00140365,0.3383333333333334,1.4142135623730827e-07,0.05402629526175328
0.00140413,0.16666666666666666,1.414213562372976e-07,0.05858228450624826
0.00140461,-0.023333333333333334,1.4142135623731028e-07,0.06004828974624735
0.0014050900000000001,-0.19666666666666668,1.414213562373156e-07,0.06342860873294559
0.00140557,-0.37333333333333335,1.4142135623731026e-07,0.057382520188541786
0.0014060499999999998,-0.5416666666666666,1.4142135623731362e-07,0.04715069888980546
0.0014065300000000002,-0.6966666666666667,1.414213562373056e-07,0.05130189136836004
0.00140701,-0.8316666666666667,1.4142135623731428e-07,0.04249467144771535
0.00140749,-0.9433333333333334,1.4142135623731293e-07,0.044002634967214974
0.00140797,-1.0266666666666666,1.4142135623731028e-07,0.03472458929129728
0.0014083000000000001,-1.057777777777778,5.477225575052784e-08,0.04055175020198817
