time,voltage,time_err,voltage_err
0.00133782,-0.8208333333333334,2.8284271247461257e-07,0.05290817859574114
0.0013387800000000001,-0.9575,2.828427124746212e-07,0.036504913308377726
0.00133974,-1.0491666666666666,2.8284271247462586e-07,0.02636147826340331
0.0013407,-1.0875000000000001,2.828427124746132e-07,0.01421878732675465
0.00134166,-1.0391666666666666,2.828427124746159e-07,0.02796218979212851
0.00134262,-0.9366666666666665,2.828427124746239e-07,0.0394160270499932
0.0013435799999999998,-0.7858333333333333,2.8284271247460786e-07,0.05055489196358029
0.00134454,-0.5816666666666667,2.828427124746099e-07,0.06824932977321281
0.0013455000000000001,-0.3558333333333333,2.828427124746299e-07,0.07076701925680318
0.00134646,-0.10916666666666668,2.828427124746159e-07,0.07598150041817482
0.00134742,0.13583333333333333,2.828427124746132e-07,0.06952739007768444
0.00134838,0.36916666666666664,2.8284271247462586e-07,0.06877288815316349
0.00134934,0.5808333333333334,2.828427124746299e-07,0.06500278700825511
0.0013502999999999998,0.7525000000000001,2.828427124746099e-07,0.04484272031464406
0.00135126,0.8833333333333333,2.828427124746079e-07,0.03472458929129724
0.0013522200000000001,0.9541666666666666,2.8284271247462385e-07,0.02165272684236664
0.00135318,0.9700000000000001,2.828427124746192e-07,0.019560385876873046
0.00135414,0.9149999999999999,2.8284271247461257e-07,0.030216609311120076
0.0013551,0.7958333333333334,2.828427124746212e-07,0.04292730626522476
0.00135606,0.64,2.828427124746212e-07,0.05897678246195884
0.0013570199999999998,0.4383333333333333,2.828427124746125e-07,0.06773777230690016
0.00135798,0.205,2.828427124746192e-07,0.07604346583140575
0.00135894,-0.035,2.828427124746312e-07,0.07300982661675547
0.0013599,-0.28583333333333333,2.828427124746192e-07,0.0760958586924737
0.00136086,-0.5216666666666666,2.828427124746099e-07,0.06722232203450089
0.00136182,-0.7291666666666666,2.828427124746299e-07,0.058970638727116206
0.00136278,-0.8925000000000001,2.8284271247462586e-07,0.045991492597048295
0.0013637399999999998,-1.0066666666666666,2.828427124746132e-07,0.02869126009427092
0.0013647,-1.0733333333333335,2.828427124746159e-07,0.01833662684514171
0.00136566,-1.0683333333333334,2.828427124746239e-07,0.022001317483607515
0.00136662,-0.9883333333333333,2.828427124746099e-07,0.03331883742774099
0.00136758,-0.8633333333333333,2.828427124746079e-07,0.05096176458164849
0.00136854,-0.6925,2.8284271247462385e-07,0.05742670186382396
0.0013695,-0.48416666666666663,2.828427124746159e-07,0.06749664511254819
0.0013704599999999998,-0.23833333333333337,2.828427124746132e-07,0.07124157717822213
0.00137142,0.009166666666666668,2.8284271247462586e-07,0.0750603621828092
0.00137238,0.2525,2.828427124746299e-07,0.06796738348201513
0.00137334,0.47583333333333333,2.828427124746252e-07,0.06775381694151945
0.0013743,0.6699999999999999,2.828427124746192e-07,0.0540531139753741
0.00137526,0.8225000000000001,2.828427124746312e-07,0.039259449153370526
0.00137622,0.9308333333333333,2.828427124746192e-07,0.030633409818390245
0.0013771799999999998,0.9716666666666667,2.8284271247461257e-07,0.011671841502435306
0.00137814,0.9483333333333333,2.828427124746212e-07,0.020359095108162042
0.0013791,0.8666666666666667,2.828427124746212e-07,0.036195924184032564
0.00138006,0.7258333333333334,2.8284271247461257e-07,0.04624289996422639
0.00138102,0.5475,2.828427124746159e-07,0.057426701863823953
0.0013819799999999999,0.33,2.8284271247462385e-07,0.06903055404170205
0.00138294,0.09333333333333332,2.8284271247460786e-07,0.06969914644020221
0.0013838999999999998,-0.15666666666666668,2.828427124746099e-07,0.07970961791657138
0.00138486,-0.3941666666666666,2.828427124746299e-07,0.06500278700825511
0.00138582,-0.6241666666666666,2.8284271247462586e-07,0.06128455842583247
0.00138678,-0.8116666666666665,2.8284271247462724e-07,0.0478827069325493
0.00138774,-0.9608333333333333,2.8284271247462586e-07,0.03752293984341783
0.0013887000000000003,-1.0483333333333333,2.828427124746299e-07,0.02425707725801792
0.00138966,-1.0808333333333333,2.828427124746099e-07,0.015012072436561852
0.0013906199999999997,-1.0366666666666666,2.8284271247460786e-07,0.02681120250399348
0.00139158,-0.9424999999999999,2.8284271247462385e-07,0.040135639588991114
0.00139254,-0.7916666666666666,2.828427124746159e-07,0.05036101551853349
0.0013935,-0.5941666666666667,2.828427124746132e-07,0.07353890816766831
0.0013944600000000001,-0.3633333333333333,2.828427124746212e-07,0.07069017929865054
0.0013954200000000003,-0.11916666666666668,2.828427124746212e-07,0.07812568840276414
0.00139638,0.12416666666666666,2.8284271247461257e-07,0.07482830588967547
0.0013973399999999997,0.3641666666666667,2.828427124746192e-07,0.06460021985873655
0.0013982999999999999,0.5708333333333334,2.828427124746312e-07,0.05837782981999891
0.00139926,0.7533333333333333,2.828427124746192e-07,0.04631336239393426
0.00140022,0.88,2.8284271247461257e-07,0.026375218935831505
0.0014011800000000001,0.9633333333333334,2.828427124746299e-07,0.023343683004870584
0.0014021400000000003,0.9766666666666666,2.8284271247462586e-07,0.014039282363260689
0.0014031,0.9166666666666666,2.828427124746132e-07,0.026811202503993437
0.0014040599999999997,0.8033333333333333,2.828427124746159e-07,0.03897230529119549
0.0014050199999999999,0.6483333333333333,2.8284271247462385e-07,0.05498352849533304
0.00140598,0.4466666666666666,2.8284271247460786e-07,0.06397463265379807
0.00140694,0.21833333333333335,2.828427124746099e-07,0.07550794180324556
0.0014079000000000001,-0.0325,2.8284271247462385e-07,0.07571399273352432
0.0014088600000000003,-0.275,2.8284271247461585e-07,0.07253185207353657
0.00140982,-0.5141666666666667,2.828427124746132e-07,0.06337717780610515
0.0014107799999999997,-0.7224999999999998,2.8284271247462586e-07,0.06137907871863039
0.0014117399999999999,-0.89,2.828427124746299e-07,0.04086031347641994
0.0014127,-1.0083333333333333,2.828427124746099e-07,0.024963741822833823
0.00141366,-1.0725,2.828427124746079e-07,0.01939296152014281
0.0014146200000000001,-1.0733333333333335,2.828427124746312e-07,0.01833662684514171
0.0014155800000000003,-0.9958333333333332,2.828427124746192e-07,0.030060325820020627
0.00141654,-0.8741666666666665,2.8284271247461257e-07,0.046242899964226404
0.0014174999999999997,-0.6900000000000001,2.828427124746212e-07,0.061573568581219054
0.0014184599999999999,-0.48666666666666664,2.828427124746212e-07,0.06663767485548192
0.00141942,-0.24833333333333332,2.8284271247461257e-07,0.07172815023567723
0.00142038,0.004166666666666666,2.828427124746192e-07,0.07934057937922992
0.00142134,0.24,2.828427124746312e-07,0.07318826230435065
0.0014223000000000003,0.47666666666666674,2.8284271247460786e-07,0.065585434933088
0.00142326,0.6675,2.828427124746099e-07,0.05399275313691966
0.0014242199999999997,0.82,2.828427124746299e-07,0.040432445000217976
0.0014251799999999998,0.9249999999999999,2.8284271247462586e-07,0.029635466413829498
0.00142614,0.9724999999999998,2.828427124746132e-07,0.01939296152014281
0.0014271,0.9466666666666667,2.828427124746159e-07,0.022586388102931183
0.00142806,0.8641666666666667,2.828427124746299e-07,0.034880749227427274
0.0014290200000000002,0.7358333333333335,2.8284271247460987e-07,0.05436724290829244
0.00142998,0.5575,2.828427124746079e-07,0.058178884560428384
0.0014309399999999997,0.34,2.8284271247462385e-07,0.06978227007909175
0.0014318999999999998,0.09666666666666668,2.8284271247461585e-07,0.07545033878776428
0.00143286,-0.14583333333333334,2.828427124746132e-07,0.0706440352057053
0.00143382,-0.38999999999999996,2.8284271247462586e-07,0.07389769661645341
0.00143478,-0.6141666666666666,2.828427124746299e-07,0.05999396104874924
0.0014357400000000002,-0.8066666666666666,2.828427124746125e-07,0.04887131875754376
0.0014364,-0.9199999999999999,1.095445115009765e-07,0.019999999999999962
