time,voltage,time_err,voltage_err
2.05e-05,-0.16749999999999998,7.071067811865475e-06,0.014218787326754632
4.45e-05,-0.12166666666666666,7.071067811865475e-06,0.01659404467996214
6.85e-05,-0.06583333333333334,7.071067811865475e-06,0.01909169331471644
9.249999999999999e-05,-0.015,7.071067811865474e-06,0.014744195615489715
0.0001165,0.043333333333333335,7.071067811865475e-06,0.018336626845141694
0.0001405,0.10083333333333333,7.071067811865475e-06,0.015012072436561838
0.00016450000000000001,0.15333333333333335,7.071067811865475e-06,0.015227739752537614
0.0001885,0.18833333333333335,7.071067811865476e-06,0.010072203103706706
0.00021250000000000002,0.2125,7.0710678118654756e-06,0.012937979144666524
0.00023649999999999998,0.22416666666666663,7.071067811865476e-06,0.008297022339981065
0.0002605,0.21833333333333335,7.071067811865475e-06,0.008164965809277256
0.0002845,0.1975,7.071067811865475e-06,0.013593476696403031
0.0003085,0.1691666666666667,7.071067811865477e-06,0.011764599317505425
0.00033250000000000006,0.12333333333333334,7.071067811865476e-06,0.017362294645648625
0.00035650000000000005,0.06833333333333334,7.071067811865474e-06,0.020359095108162063
0.00038050000000000003,0.015,7.071067811865473e-06,0.018881783261398666
0.0004045000000000001,-0.0425,7.071067811865474e-06,0.01700383588437058
0.00042850000000000006,-0.10166666666666667,7.071067811865476e-06,0.017610932046210153
0.0004525,-0.14750000000000002,7.071067811865476e-06,0.017507762253652942
0.0004765,-0.19166666666666668,7.071067811865474e-06,0.014345630047135452
0.0005005,-0.21833333333333335,7.071067811865476e-06,0.005646597025732796
0.0005244999999999999,-0.23416666666666663,7.071067811865475e-06,0.009286112429750727
0.0005484999999999999,-0.22916666666666666,7.071067811865475e-06,0.010179547554081026
0.0005725,-0.20500000000000004,7.0710678118654756e-06,0.013513278493843525
0.0005964999999999999,-0.17666666666666667,7.071067811865474e-06,0.011293194051465597
0.0006205,-0.13083333333333333,7.07106781186548e-06,0.020412414523193152
0.0006445,-0.07833333333333332,7.071067811865471e-06,0.020359095108162063
0.0006684999999999999,-0.020833333333333332,7.07106781186548e-06,0.019981875845846923
0.0006925,0.03666666666666667,7.071067811865476e-06,0.020144406207413396
0.0007165,0.09333333333333334,7.0710678118654756e-06,0.015227739752537618
0.0007405,0.14250000000000002,7.071067811865475e-06,0.013593476696403027
0.0007645,0.18250000000000002,7.071067811865469e-06,0.013593476696403031
0.0007885,0.21000000000000005,7.071067811865476e-06,0.010215078369104978
0.0008125,0.22,7.071067811865473e-06,0.008340576562282986
0.0008365,0.22333333333333336,7.071067811865475e-06,0.007613869876268806
0.0008605,0.20250000000000004,7.07106781186548e-06,0.013593476696403027
0.0008845,0.17416666666666666,7.0710678118654756e-06,0.011000658741803743
0.0009085,0.13583333333333333,7.0710678118654756e-06,0.017672544824662642
0.0009325000000000001,0.08,7.0710678118654705e-06,0.018650096164806278
0.0009565,0.022500000000000003,7.071067811865475e-06,0.017997584378973218
0.0009804999999999998,-0.03333333333333333,7.07106781186547e-06,0.01632993161855452
0.0010045,-0.08916666666666667,7.071067811865473e-06,0.02041241452319315
0.0010285,-0.14333333333333334,7.071067811865476e-06,0.02180280529749738
0.0010524999999999998,-0.18250000000000002,7.071067811865471e-06,0.012247448713915894
0.0010765,-0.215,7.07106781186547e-06,0.01351327849384352
0.0011005,-0.23666666666666666,7.071067811865475e-06,0.007613869876268806
0.0011244999999999998,-0.235,7.071067811865466e-06,0.008846517369293825
0.0011485,-0.21333333333333337,7.07106781186548e-06,0.012740441145412118
0.0011725,-0.18166666666666667,7.071067811865479e-06,0.013077250963165893
0.0011964999999999999,-0.13583333333333333,7.071067811865475e-06,0.018630658852422866
0.0012205,-0.08583333333333333,7.071067811865484e-06,0.019981875845846923
0.0012445,-0.028333333333333332,7.071067811865471e-06,0.014345630047135446
0.0012684999999999999,0.0275,7.071067811865476e-06,0.018474424154113357
0.0012925,0.08416666666666667,7.071067811865473e-06,0.020412414523193152
0.0013165,0.13833333333333334,7.071067811865473e-06,0.01857222485950146
0.0013405,0.17666666666666667,7.07106781186547e-06,0.011293194051465597
0.0013645,0.2016666666666667,7.071067811865471e-06,0.014345630047135448
0.0013885,0.21916666666666665,7.07106781186548e-06,0.00717281502356772
0.0014125,0.2283333333333333,7.071067811865475e-06,0.010072203103706693
0.0014365,0.2041666666666667,7.071067811865477e-06,0.013160106602801569
0.0014605,0.17833333333333334,7.071067811865484e-06,0.010072203103706698
0.0014845,0.14333333333333334,7.071067811865479e-06,0.018336626845141694
0.0015085,0.09166666666666667,7.071067811865479e-06,0.01761093204621016
0.0015325,0.035,7.071067811865484e-06,0.023774301068682287
0.0015565,-0.023333333333333334,7.071067811865477e-06,0.01736229464564862
0.0015805,-0.08166666666666668,7.071067811865475e-06,0.01659404467996214
0.0016045,-0.13333333333333333,7.07106781186548e-06,0.0201444062074134
0.0016285,-0.17833333333333334,7.071067811865471e-06,0.014345630047135448
0.0016525,-0.21166666666666667,7.07106781186547e-06,0.013077250963165888
0.0016765,-0.2283333333333333,7.071067811865473e-06,0.010072203103706693
0.0017005,-0.23166666666666666,7.07106781186548e-06,0.010072203103706693
0.0017245000000000001,-0.2141666666666667,7.071067811865476e-06,0.011000658741803742
0.0017485,-0.19083333333333333,7.071067811865471e-06,0.013160106602801576
0.0017725,-0.14583333333333334,7.071067811865484e-06,0.017173454405910418
0.0017965000000000001,-0.09583333333333334,7.071067811865475e-06,0.01863065885242286
0.0018205,-0.035833333333333335,7.071067811865479e-06,0.017672544824662635
0.0018445,0.015000000000000001,7.07106781186548e-06,0.02377430106868229
0.0018684999999999997,0.07583333333333334,7.071067811865466e-06,0.016659418713870486
0.0018925,0.12583333333333332,7.071067811865475e-06,0.013805061033727004
0.0019165,0.1708333333333333,7.07106781186547e-06,0.013160106602801565
0.0019405000000000002,0.19916666666666671,7.071067811865471e-06,0.012481870911416903
0.0019645,0.21999999999999997,7.0710678118654646e-06,0.008340576562282986
0.0019885000000000002,0.22416666666666665,7.071067811865482e-06,0.008297022339981065
0.0020125,0.21083333333333334,7.071067811865475e-06,0.010179547554081025
0.0020365,0.18333333333333335,7.071067811865487e-06,0.012740441145412127
0.0020605,0.15083333333333335,7.071067811865457e-06,0.01558055272409826
0.0020845,0.09916666666666667,7.071067811865475e-06,0.01998187584584692
0.0021084999999999997,0.04416666666666667,7.071067811865459e-06,0.017672544824662635
0.0021325000000000003,-0.016666666666666666,7.071067811865457e-06,0.020144406207413396
0.0021565,-0.07,7.0710678118654485e-06,0.0212643813228478
0.0021804999999999997,-0.12583333333333332,7.071067811865459e-06,0.017173454405910425
0.0022045,-0.17250000000000001,7.071067811865459e-06,0.011515584902738279
0.0022285,-0.2025,7.071067811865479e-06,0.014817733206914761
0.0022524999999999997,-0.22749999999999995,7.071067811865457e-06,0.011515584902738279
0.0022765000000000003,-0.23166666666666666,7.0710678118654874e-06,0.010072203103706693
0.0023005,-0.22166666666666668,7.071067811865475e-06,0.01167184150243529
0.0023244999999999997,-0.19250000000000003,7.071067811865482e-06,0.011515584902738293
0.0023485,-0.15416666666666667,7.07106781186548e-06,0.018157922373651013
0.0023725,-0.10583333333333333,7.071067811865475e-06,0.016129008882638508
0.0023964999999999998,-0.04583333333333334,7.071067811865474e-06,0.01909169331471644
0.0024205000000000003,0.0075,7.07106781186548e-06,0.019392961520142797
0.0024445,0.06583333333333334,7.071067811865485e-06,0.021652726842366646
0.0024684999999999998,0.11916666666666666,7.071067811865474e-06,0.01815792237365102
0.0024850000000000002,0.15333333333333335,2.7386127875258375e-06,0.009999999999999995
