time,voltage,time_err,voltage_err
0.00097442,-0.8858333333333333,2.828427124746212e-07,0.03308968927372822
0.0009753800000000001,-0.785,2.8284271247461554e-07,0.03741657386773941
0.00097634,-0.6658333333333334,2.8284271247460887e-07,0.04106375389632529
0.0009773,-0.515,2.828427124746192e-07,0.04462403329850505
0.0009782600000000001,-0.35333333333333333,2.828427124746312e-07,0.05230900385266355
0.00097922,-0.18666666666666668,2.828427124746192e-07,0.052309003852663565
0.00098018,-0.022500000000000003,2.8284271247461257e-07,0.048387026647915526
0.00098114,0.1575,2.828427124746212e-07,0.05697062553556037
0.0009820999999999999,0.32,2.828427124746212e-07,0.04791296457028143
0.00098306,0.4725,2.828427124746132e-07,0.04856640456296837
0.00098402,0.6141666666666666,2.828427124746159e-07,0.039333210513195625
0.00098498,0.7425,2.828427124746239e-07,0.040135639588991134
0.00098594,0.8483333333333333,2.8284271247460786e-07,0.03383677786420988
0.0009869,0.9283333333333333,2.828427124746099e-07,0.027610122067453977
0.00098786,0.9766666666666666,2.828427124746299e-07,0.021802805297497382
0.0009888199999999998,1.0058333333333334,2.8284271247462586e-07,0.013805061033727011
0.00098978,0.9983333333333334,2.8284271247462724e-07,0.01857222485950148
0.00099074,0.9525,2.8284271247462586e-07,0.01750776225365293
0.0009917,0.8874999999999998,2.828427124746299e-07,0.034294124227362034
0.00099266,0.7958333333333334,2.828427124746099e-07,0.030060325820020585
0.00099362,0.6825,2.828427124746079e-07,0.04386243316869528
0.00099458,0.5483333333333333,2.8284271247462385e-07,0.043705204810597004
0.0009955399999999998,0.39333333333333337,2.8284271247461585e-07,0.04957792870313113
0.0009965,0.2333333333333333,2.828427124746132e-07,0.04668736600974118
0.00099746,0.06916666666666667,2.828427124746212e-07,0.048626050154451046
0.00099842,-0.105,2.828427124746212e-07,0.05250258792793395
0.00099938,-0.27916666666666673,2.8284271247461257e-07,0.054207064088561824
0.00100034,-0.4466666666666667,2.828427124746192e-07,0.046313362393934264
0.0010012999999999999,-0.5941666666666667,2.828427124746312e-07,0.04586527213923184
0.0010022599999999998,-0.7241666666666666,2.828427124746192e-07,0.036345763064676774
0.00100322,-0.8383333333333334,2.828427124746252e-07,0.03679161845319932
0.00100418,-0.9249999999999999,2.828427124746299e-07,0.02519489251208766
0.00100514,-0.9874999999999999,2.8284271247462586e-07,0.021918822564378236
0.0010061,-1.0208333333333333,2.828427124746132e-07,0.011000658741803756
0.00100706,-1.0241666666666667,2.828427124746159e-07,0.01316010660280158
0.0010080199999999999,-0.9883333333333333,2.8284271247462385e-07,0.01857222485950148
0.00100898,-0.9258333333333333,2.8284271247460786e-07,0.026689301987495074
0.00100994,-0.8283333333333333,2.828427124746099e-07,0.035833754631834094
0.0010109,-0.7266666666666667,2.8284271247462385e-07,0.03157691323222336
0.00101186,-0.5883333333333334,2.828427124746159e-07,0.046407145876532815
0.00101282,-0.43999999999999995,2.828427124746132e-07,0.04681136985632964
0.00101378,-0.27499999999999997,2.8284271247462586e-07,0.04577829369813868
0.0010147399999999999,-0.10666666666666667,2.828427124746299e-07,0.05490439648719571
0.0010157,0.06666666666666667,2.828427124746099e-07,0.04705839727002173
0.00101666,0.23749999999999996,2.828427124746079e-07,0.05573617980387995
0.00101762,0.40166666666666667,2.828427124746312e-07,0.045268922698898414
0.00101858,0.55,2.828427124746192e-07,0.04452649431127689
0.00101954,0.6808333333333332,2.8284271247461257e-07,0.03610572237756497
0.0010205,0.7966666666666667,2.828427124746212e-07,0.03370803886401536
0.0010214599999999999,0.8850000000000001,2.828427124746212e-07,0.03021660931112011
0.00102242,0.9541666666666666,2.8284271247461257e-07,0.02465706824609837
0.00102338,0.9899999999999999,2.828427124746192e-07,0.015603789952109893
0.00102434,1.0033333333333332,2.828427124746239e-07,0.016329931618554536
0.0010253,0.9766666666666666,2.8284271247460786e-07,0.020144406207413413
0.00102626,0.9249999999999999,2.828427124746099e-07,0.02519489251208766
0.00102722,0.8416666666666667,2.828427124746299e-07,0.03534508964932527
0.00102818,0.7391666666666667,2.8284271247462586e-07,0.029769647026089713
0.00102914,0.615,2.828427124746132e-07,0.04180701002172389
0.0010301000000000002,0.46833333333333327,2.8284271247461585e-07,0.048960202708683336
0.00103106,0.31416666666666665,2.828427124746299e-07,0.04735771978451249
0.00103202,0.145,2.828427124746099e-07,0.04836455763038269
0.00103298,-0.024999999999999998,2.828427124746079e-07,0.05381126437757287
0.00103394,-0.19416666666666668,2.8284271247462385e-07,0.05157659282597321
0.0010349,-0.365,2.828427124746159e-07,0.0465318964937423
0.00103586,-0.5166666666666667,2.828427124746132e-07,0.0474265259355863
0.0010368200000000001,-0.6525,2.8284271247462586e-07,0.04366373482800612
0.00103778,-0.7799999999999999,2.828427124746299e-07,0.03683098884269107
0.00103874,-0.8833333333333334,2.8284271247461257e-07,0.024788964351565586
0.0010397,-0.9583333333333334,2.828427124746192e-07,0.0242570772580179
0.00104066,-1.0058333333333334,2.828427124746312e-07,0.01612900888263852
0.00104162,-1.0308333333333335,2.828427124746192e-07,0.017672544824662653
0.00104258,-1.0075,2.8284271247461257e-07,0.02345207879911717
0.0010435400000000001,-0.965,2.828427124746212e-07,0.022263247155638446
0.0010445,-0.8841666666666667,2.8284271247462586e-07,0.027013147630876644
0.00104546,-0.7799999999999999,2.828427124746132e-07,0.037300192329612555
0.00104642,-0.6558333333333333,2.828427124746159e-07,0.03999094100316771
0.0010473799999999999,-0.5141666666666667,2.8284271247462385e-07,0.04735771978451249
0.00104834,-0.36000000000000004,2.8284271247460786e-07,0.050389785024175376
0.0010493,-0.19416666666666668,2.828427124746099e-07,0.05484497255439877
0.0010502600000000001,-0.021666666666666667,2.828427124746299e-07,0.04824454613615987
0.00105122,0.155,2.8284271247462586e-07,0.0572560989726441
0.00105218,0.3191666666666667,2.828427124746132e-07,0.04808657651132705
0.00105314,0.47333333333333333,2.8284271247462586e-07,0.049927483645667604
0.0010540999999999999,0.615,2.828427124746299e-07,0.03599516875794645
0.00105506,0.7491666666666665,2.828427124746099e-07,0.031748559250661355
0.00105602,0.8466666666666667,2.828427124746079e-07,0.037609742801875005
0.0010569800000000001,0.9308333333333333,2.8284271247462385e-07,0.02124733572385765
0.00105794,0.98,2.828427124746159e-07,0.022067091374694824
0.0010589,1.0025,2.8284271247461257e-07,0.012247448713915901
0.00105986,0.9975,2.828427124746212e-07,0.014817733206914771
0.0010608199999999999,0.9499999999999998,2.828427124746212e-07,0.017693034738587646
0.00106178,0.8833333333333333,2.8284271247461257e-07,0.034220089023169184
0.00106274,0.7991666666666667,2.828427124746192e-07,0.0325598668230727
0.0010637,0.6783333333333333,2.828427124746312e-07,0.03434690881182083
0.00106466,0.5441666666666667,2.828427124746192e-07,0.04210924370963104
0.00106562,0.3875,2.828427124746252e-07,0.04892318735394869
0.00106658,0.22833333333333336,2.828427124746299e-07,0.05337860397499021
0.0010675399999999999,0.05666666666666667,2.8284271247462586e-07,0.04957792870313113
0.0010685,-0.10833333333333334,2.828427124746132e-07,0.05402629526175328
0.00106946,-0.2808333333333333,2.828427124746159e-07,0.055161160459044054
0.00107042,-0.44083333333333335,2.828427124746239e-07,0.04986212875577988
0.00107138,-0.5983333333333334,2.8284271247460786e-07,0.04603086551119961
0.00107234,-0.7208333333333333,2.828427124746079e-07,0.037522939843417834
0.0010730000000000002,-0.8022222222222223,1.0954451150104578e-07,0.018559214542766704
