time,voltage,time_err,voltage_err
0.00136221,-1.0908333333333333,1.414213562373056e-07,0.019541854005467728
0.00136269,-1.0916666666666668,1.4142135623731293e-07,0.017610932046210174
0.0013631700000000001,-1.0350000000000001,1.4142135623731028e-07,0.025875958289333086
0.00136365,-0.9391666666666666,1.414213562373156e-07,0.038888543821795504
0.00136413,-0.7966666666666665,1.4142135623731026e-07,0.04593631382181455
0.0013646099999999998,-0.6175,1.414213562372976e-07,0.061661770271728956
0.00136509,-0.4216666666666667,1.4142135623731425e-07,0.058952203680953094
0.00136557,-0.20750000000000002,1.414213562373056e-07,0.06873072852427989
0.00136605,0.011666666666666665,1.4142135623731362e-07,0.06565169401878548
0.0013665300000000001,0.2275,1.414213562373203e-07,0.06822278084398903
0.00136701,0.43500000000000005,1.414213562373156e-07,0.06331426104894468
0.0013674899999999999,0.61,1.4142135623731227e-07,0.050389785024175376
0.0013679700000000003,0.7683333333333334,1.414213562372976e-07,0.04166811591682509
0.00136845,0.8841666666666667,1.4142135623730827e-07,0.03282584700939275
0.00136893,0.9633333333333334,1.414213562373056e-07,0.024077170617153844
0.00136941,0.9950000000000001,1.4142135623729962e-07,0.013513278493843537
0.0013698900000000001,0.9699999999999999,1.414213562373203e-07,0.021264381322847806
0.00137037,0.8966666666666666,1.414213562373156e-07,0.028691260094270896
0.00137085,0.7891666666666667,1.4142135623729962e-07,0.04127497048340309
0.0013713300000000002,0.6441666666666667,1.4142135623730893e-07,0.05531857669477977
0.00137181,0.4633333333333333,1.4142135623730827e-07,0.057985505435235375
0.00137229,0.26166666666666666,1.4142135623730896e-07,0.06349711850132268
0.00137277,0.04833333333333334,1.4142135623729962e-07,0.06644164923918722
0.0013732500000000001,-0.17333333333333334,1.414213562373156e-07,0.07166750926366823
0.00137373,-0.3941666666666667,1.4142135623732026e-07,0.06736769104772293
0.0013742099999999998,-0.5925000000000001,1.4142135623729962e-07,0.057426701863823953
0.0013746900000000002,-0.7716666666666665,1.414213562373056e-07,0.040824829046386304
0.00137517,-0.9141666666666666,1.4142135623730827e-07,0.04020779360604939
0.00137565,-1.0258333333333334,1.414213562372976e-07,0.030348220586281904
0.00137613,-1.0841666666666667,1.4142135623731227e-07,0.017672544824662653
0.0013766100000000001,-1.1075000000000002,1.414213562373156e-07,0.012937979144666517
0.00137709,-1.0575,1.4142135623731026e-07,0.02658047665355977
0.00137757,-0.9758333333333334,1.4142135623731362e-07,0.03386888615345008
0.0013780500000000002,-0.8508333333333334,1.414213562373056e-07,0.04373006792333749
0.00137853,-0.6816666666666666,1.4142135623731428e-07,0.056234498669230706
0.00137901,-0.4916666666666667,1.414213562372976e-07,0.06126681963678054
0.00137949,-0.2833333333333333,1.4142135623731028e-07,0.06287784338227415
0.0013799700000000001,-0.06583333333333334,1.414213562373156e-07,0.06473468707072683
0.00138045,0.14666666666666667,1.4142135623731026e-07,0.06663767485548192
0.0013809299999999998,0.36916666666666664,1.4142135623731293e-07,0.05926481958615676
0.0013814100000000002,0.5525000000000001,1.414213562373056e-07,0.050669431656056946
0.00138189,0.7258333333333332,1.414213562373056e-07,0.04312939748635763
0.00138237,0.8516666666666666,1.4142135623731293e-07,0.033318837427740965
0.00138285,0.9433333333333334,1.4142135623731028e-07,0.026811202503993433
0.00138333,0.9824999999999999,1.4142135623732294e-07,0.017997584378973235
0.00138381,0.9883333333333333,1.4142135623731026e-07,0.017610932046210174
0.00138429,0.9308333333333332,1.4142135623729763e-07,0.028271458439897278
0.0013847700000000002,0.8341666666666666,1.4142135623731425e-07,0.03562078858911106
0.00138525,0.6933333333333334,1.414213562373056e-07,0.047058397270021715
0.00138573,0.5258333333333334,1.4142135623731362e-07,0.058822996587527154
0.00138621,0.33499999999999996,1.4142135623731028e-07,0.061361367254196254
0.00138669,0.125,1.414213562373156e-07,0.0673085045340386
0.00138717,-0.10083333333333333,1.4142135623731227e-07,0.07064403520570528
0.0013876499999999998,-0.32499999999999996,1.414213562372976e-07,0.06756639246921763
0.0013881300000000002,-0.5233333333333333,1.4142135623730827e-07,0.06004828974624735
0.00138861,-0.7133333333333333,1.414213562373056e-07,0.05394575912466366
0.00138909,-0.8733333333333334,1.4142135623729962e-07,0.04779181908040844
0.00138957,-0.9925,1.4142135623732026e-07,0.029963746210320944
0.00139005,-1.0675000000000001,1.414213562373156e-07,0.024182278815191364
0.00139053,-1.1066666666666667,1.4142135623731227e-07,0.016329931618554505
0.00139101,-1.0783333333333334,1.4142135623730896e-07,0.02425707725801792
0.0013914900000000002,-1.0075,1.4142135623730827e-07,0.03165713052447237
0.00139197,-0.8949999999999999,1.4142135623730896e-07,0.035015524507305884
0.00139245,-0.7491666666666665,1.4142135623729962e-07,0.04490731195102494
0.00139293,-0.5616666666666666,1.414213562373156e-07,0.05654291687979461
0.00139341,-0.36166666666666664,1.414213562373156e-07,0.06349711850132268
0.00139389,-0.1425,1.4142135623729962e-07,0.06986010866444953
0.0013943699999999998,0.0825,1.414213562373056e-07,0.06137907871863039
0.0013948500000000002,0.29250000000000004,1.4142135623730827e-07,0.06401426471464404
0.00139533,0.49666666666666665,1.414213562372976e-07,0.05362240500798692
0.00139581,0.6658333333333334,1.4142135623731227e-07,0.04808657651132704
0.00139629,0.8125,1.414213562373156e-07,0.03767711795495116
0.00139677,0.9125,1.4142135623732026e-07,0.02345207879911713
0.00139725,0.9775,1.4142135623731362e-07,0.0206944647083518
0.00139773,0.9941666666666666,1.414213562373056e-07,0.011000658741803756
0.0013982100000000002,0.9491666666666667,1.4142135623731428e-07,0.02205066629510252
0.00139869,0.8700000000000001,1.414213562372976e-07,0.032836882762607336
0.00139917,0.7475,1.4142135623731028e-07,0.04784485797640755
0.00139965,0.5916666666666667,1.414213562373156e-07,0.052392056041272936
0.00140013,0.4008333333333334,1.4142135623731026e-07,0.060283148317042075
0.00140061,0.1975,1.4142135623731362e-07,0.06277980844050168
0.0014010899999999998,-0.02,1.414213562373056e-07,0.06487446070815474
0.0014015700000000002,-0.24,1.414213562373056e-07,0.06646345841398736
0.00140205,-0.45500000000000007,1.4142135623731293e-07,0.0578604017178979
0.00140253,-0.645,1.4142135623731028e-07,0.05013026509266502
0.0014030099999999999,-0.8183333333333334,1.4142135623732294e-07,0.051723904713783735
0.00140349,-0.9499999999999998,1.4142135623731026e-07,0.03175996933521681
0.00140397,-1.05,1.4142135623731293e-07,0.027026556987687075
0.00140445,-1.0983333333333334,1.4142135623731425e-07,0.015510632164580783
0.0014049300000000002,-1.0958333333333334,1.414213562373056e-07,0.01316010660280158
0.0014054100000000002,-1.0316666666666667,1.4142135623731362e-07,0.023529198635010885
0.00140589,-0.9366666666666665,1.4142135623731028e-07,0.033188089359924254
0.0014063699999999999,-0.8025000000000001,1.414213562373156e-07,0.04910060656669519
0.00140685,-0.6283333333333333,1.4142135623731026e-07,0.06267005849593614
0.00140733,-0.43,1.4142135623729763e-07,0.06351993867043365
0.0014078099999999998,-0.215,1.4142135623730827e-07,0.06600395245082248
0.0014082900000000002,0.004166666666666668,1.414213562373056e-07,0.06540287632729969
0.00140877,0.22833333333333336,1.4142135623729962e-07,0.060696441172563766
0.00140925,0.4283333333333333,1.4142135623732026e-07,0.059830678960943906
0.0014097299999999999,0.6141666666666667,1.414213562373156e-07,0.051576592825973225
0.00141021,0.7658333333333333,1.4142135623731227e-07,0.04063802745412626
0.00141069,0.8841666666666667,1.4142135623729763e-07,0.03586407511783863
0.00141117,0.9625,1.4142135623730827e-07,0.022312016649252524
0.0014115,0.9933333333333333,5.477225575052784e-08,0.010000000000000009
