time,voltage,time_err,voltage_err
-0.001139,0.85,1.4142135623730951e-05,0.0338795821543968
-0.001091,0.9341666666666667,1.4142135623730951e-05,0.01815792237365099
-0.0010429999999999999,0.9583333333333334,1.414213562373096e-05,0.008164965809277268
-0.000995,0.9291666666666666,1.4142135623730955e-05,0.02041241452319312
-0.0009469999999999999,0.8383333333333333,1.414213562373095e-05,0.03631584474730203
-0.000899,0.6883333333333334,1.414213562373095e-05,0.05205905231116133
-0.0008509999999999999,0.49750000000000005,1.4142135623730955e-05,0.059068861803683065
-0.0008029999999999999,0.2783333333333333,1.4142135623730953e-05,0.06591606432601907
-0.000755,0.04750000000000001,1.414213562373095e-05,0.06998447032704129
-0.0007069999999999998,-0.1958333333333333,1.4142135623730948e-05,0.06851954127277768
-0.000659,-0.42333333333333334,1.414213562373095e-05,0.0647850403200875
-0.000611,-0.6183333333333333,1.4142135623730953e-05,0.05205905231116134
-0.000563,-0.7875,1.4142135623730955e-05,0.04406023544905413
-0.0005149999999999999,-0.9016666666666667,1.414213562373095e-05,0.02943920288775948
-0.00046699999999999997,-0.9641666666666667,1.414213562373095e-05,0.014421200175184935
-0.00041900000000000005,-0.9691666666666666,1.4142135623730951e-05,0.011764599317505443
-0.000371,-0.9174999999999999,1.414213562373095e-05,0.02523799757784142
-0.000323,-0.7891666666666666,1.414213562373095e-05,0.04333054617569524
-0.000275,-0.6158333333333333,1.414213562373095e-05,0.05594381239178766
-0.000227,-0.40833333333333327,1.4142135623730953e-05,0.06349711850132267
-0.000179,-0.18166666666666667,1.414213562373095e-05,0.0719702031741438
-0.000131,0.0625,1.414213562373095e-05,0.06986010866444953
-8.3e-05,0.29833333333333334,1.414213562373095e-05,0.06591606432601907
-3.5000000000000004e-05,0.5108333333333334,1.414213562373095e-05,0.05926481958615676
1.3e-05,0.6958333333333334,1.414213562373095e-05,0.047905401952513485
6.1e-05,0.8366666666666666,1.414213562373095e-05,0.034220089023169156
0.000109,0.9266666666666667,1.414213562373095e-05,0.018336626845141663
0.000157,0.9566666666666667,1.4142135623730953e-05,0.007613869876268817
0.00020500000000000002,0.9383333333333331,1.414213562373095e-05,0.015510632164580743
0.000253,0.8541666666666666,1.414213562373095e-05,0.03658422880287966
0.000301,0.71,1.4142135623730953e-05,0.0486335007099463
0.00034899999999999997,0.5216666666666667,1.414213562373095e-05,0.059246476076946816
0.000397,0.3108333333333333,1.414213562373095e-05,0.0687728881531635
0.00044500000000000003,0.07500000000000001,1.414213562373095e-05,0.07156632679154899
0.0004930000000000001,-0.1675,1.4142135623730951e-05,0.07121614374869495
0.0005409999999999999,-0.39749999999999996,1.414213562373095e-05,0.06305622060131529
0.000589,-0.5975,1.414213562373095e-05,0.05285336565318774
0.000637,-0.7658333333333333,1.414213562373095e-05,0.043129397486357635
0.000685,-0.8875000000000001,1.414213562373095e-05,0.030538642662243102
0.000733,-0.9583333333333334,1.4142135623730955e-05,0.015510632164580783
0.0007809999999999999,-0.9716666666666667,1.4142135623730953e-05,0.010072203103706706
0.0008289999999999999,-0.9241666666666667,1.4142135623730948e-05,0.02636147826340326
0.0008769999999999998,-0.8066666666666666,1.4142135623730946e-05,0.04555614468807231
0.0009249999999999999,-0.6375000000000001,1.4142135623730948e-05,0.05542327246234006
0.0009729999999999999,-0.43999999999999995,1.4142135623730946e-05,0.06296997213993626
0.001021,-0.21166666666666667,1.414213562373095e-05,0.07075165794134633
0.0010689999999999999,0.034999999999999996,1.4142135623730946e-05,0.06756639246921761
0.001117,0.2683333333333333,1.4142135623730953e-05,0.0672223220345009
0.001165,0.4841666666666667,1.414213562373095e-05,0.06071434660817796
0.0012129999999999999,0.6750000000000002,1.414213562373095e-05,0.049078464240172724
0.001261,0.8216666666666667,1.4142135623730951e-05,0.037261317704845705
0.001309,0.9216666666666665,1.4142135623730953e-05,0.022778072344036133
0.001357,0.9575,1.414213562373096e-05,0.012247448713915901
0.001405,0.9416666666666665,1.4142135623730943e-05,0.01307725096316587
0.001453,0.8658333333333333,1.414213562373096e-05,0.028577380332470436
0.001501,0.7325,1.4142135623730953e-05,0.04856640456296836
0.001549,0.5491666666666667,1.4142135623730951e-05,0.058970638727116206
0.0015970000000000001,0.33666666666666667,1.414213562373095e-05,0.06767355572841977
0.001645,0.10916666666666668,1.4142135623730938e-05,0.0731833116321561
0.001693,-0.13749999999999998,1.4142135623730953e-05,0.07397120473829519
0.0017410000000000001,-0.36833333333333335,1.4142135623730946e-05,0.06824932977321282
0.001789,-0.5708333333333334,1.414213562373095e-05,0.057477153621293714
0.001837,-0.7441666666666666,1.414213562373096e-05,0.043330546175695255
0.0018850000000000002,-0.8724999999999999,1.4142135623730951e-05,0.033264421521055146
0.001933,-0.9525,1.4142135623730936e-05,0.018474424154113343
0.001981,-0.9716666666666667,1.4142135623730955e-05,0.011671841502435306
0.002029,-0.9325,1.414213562373096e-05,0.02345207879911712
0.0020770000000000003,-0.8291666666666666,1.4142135623730958e-05,0.04373006792333748
0.002125,-0.6641666666666667,1.4142135623730958e-05,0.056562137179555376
0.002173,-0.46416666666666667,1.4142135623730968e-05,0.06156768397580771
0.002221,-0.24416666666666667,1.4142135623730955e-05,0.07150048140103471
0.002269,0.0,1.4142135623730953e-05,0.0743668930546967
0.002317,0.23666666666666666,1.414213562373096e-05,0.06994822101517954
0.0023649999999999995,0.45916666666666667,1.4142135623730943e-05,0.0585265949704968
0.0024129999999999998,0.6508333333333334,1.414213562373094e-05,0.05339896324239187
0.002461,0.8066666666666666,1.4142135623730946e-05,0.03985480895828567
0.0025089999999999995,0.9091666666666667,1.414213562373096e-05,0.0256932856508511
0.002557,0.9541666666666666,1.4142135623730953e-05,0.011000658741803756
0.0026049999999999997,0.9491666666666666,1.4142135623730955e-05,0.01017954755408104
0.0026529999999999995,0.8833333333333334,1.4142135623730968e-05,0.029878982967771965
0.0027010000000000003,0.7541666666666668,1.414213562373095e-05,0.04951211241062452
0.002749,0.5725,1.4142135623730958e-05,0.05892146578654321
0.0027969999999999996,0.36333333333333334,1.414213562373096e-05,0.06689814884464726
0.0028450000000000003,0.13833333333333334,1.4142135623730955e-05,0.06951175481867088
0.0028929999999999997,-0.1025,1.414213562373095e-05,0.07467320105982962
0.0029409999999999996,-0.3408333333333333,1.414213562373094e-05,0.06553569665634054
0.0029890000000000003,-0.5433333333333333,1.4142135623730943e-05,0.05858228450624826
0.003037,-0.7216666666666667,1.4142135623730922e-05,0.049314136492196785
0.0030849999999999996,-0.8583333333333334,1.4142135623730946e-05,0.03631584474730204
0.0031330000000000004,-0.9475000000000001,1.4142135623730946e-05,0.01939296152014277
0.003181,-0.975,1.4142135623730922e-05,0.008846517369293837
0.0032289999999999997,-0.9391666666666666,1.4142135623730943e-05,0.019981875845846896
0.0032770000000000004,-0.8458333333333333,1.414213562373094e-05,0.042315242054665456
0.003325,-0.6866666666666665,1.414213562373095e-05,0.055534295448979025
0.0033729999999999997,-0.49583333333333335,1.4142135623730933e-05,0.06184951348911792
0.0034210000000000004,-0.27416666666666667,1.414213562373096e-05,0.07258677964829507
0.003469,-0.030833333333333338,1.4142135623730958e-05,0.07666509135117532
0.0035169999999999997,0.20666666666666667,1.414213562373095e-05,0.06969914644020221
0.003565,0.43083333333333335,1.4142135623730968e-05,0.06184951348911792
0.003613,0.63,1.4142135623730943e-05,0.054053113975374094
0.0036609999999999998,0.7891666666666666,1.4142135623730953e-05,0.04412597250231842
0.003709,0.8941666666666667,1.414213562373096e-05,0.026029526155580678
0.003757,0.9508333333333333,1.4142135623730946e-05,0.01017954755408104
0.00379,0.9622222222222222,5.477225575051636e-06,0.006666666666666672
